Temperature,Internal Energy,Cv
10.0,-1.1481471090556578e-21,2.684453243795207e-23
10.099009900990099,-1.1454892345568507e-21,4.0041681964025027e-23
10.198019801980198,-1.1402180631221875e-21,5.331300077934845e-23
10.297029702970297,-1.134932204699554e-21,5.346395838982483e-23
10.396039603960396,-1.1296311406687568e-21,5.362020596822417e-23
10.495049504950495,-1.1243143421315888e-21,5.378184433370347e-23
10.594059405940595,-1.118981270503667e-21,5.394896814792604e-23
10.693069306930694,-1.1136313781419004e-21,5.412166556297894e-23
10.792079207920793,-1.1082641090060475e-21,5.430001789895424e-23
10.891089108910892,-1.1028788993500282e-21,5.448409933515925e-23
10.990099009900991,-1.0974751784446297e-21,5.467397662416787e-23
11.089108910891088,-1.0920523693254405e-21,5.486970882484227e-23
11.18811881188119,-1.0866098895684232e-21,5.507134705529628e-23
11.287128712871286,-1.0811471520867678e-21,5.527893427552336e-23
11.386138613861386,-1.0756635659495079e-21,5.549250508606016e-23
11.485148514851485,-1.0701585372182412e-21,5.571208554952508e-23
11.584158415841584,-1.064631469801087e-21,5.593769303548758e-23
11.683168316831683,-1.0590817663201247e-21,5.616933609062213e-23
11.782178217821782,-1.0535088289910627e-21,5.640701432734964e-23
11.881188118811881,-1.0479120605127288e-21,5.665071834262485e-23
11.98019801980198,-1.0422908649628203e-21,5.690042965131347e-23
12.07920792079208,-1.0366446487005874e-21,5.715612064291593e-23
12.178217821782178,-1.0309728212711538e-21,5.741775456599746e-23
12.277227722772277,-1.025274796311281e-21,5.768528553062479e-23
12.376237623762377,-1.0195499924532082e-21,5.795865853171136e-23
12.475247524752476,-1.0137978342257936e-21,5.823780950153116e-23
12.574257425742575,-1.0080177529479545e-21,5.852266536224106e-23
12.673267326732674,-1.0022091876194092e-21,5.881314412022494e-23
12.772277227722773,-9.963715857954347e-22,5.910915498571958e-23
12.871287128712872,-9.905044044539202e-22,5.941059847007712e-23
12.97029702970297,-9.846071108508652e-22,5.971736654331967e-23
13.06930693069307,-9.786791833562332e-22,6.002934280921462e-23
13.168316831683168,-9.727201122747829e-22,6.034640265894125e-23
13.267326732673268,-9.667294006514923e-22,6.066841348019337e-23
13.366336633663366,-9.607065650509822e-22,6.099523487018408e-23
13.465346534653465,-9.546511363207628e-22,6.132671884475145e-23
13.564356435643564,-9.485626603292493e-22,6.1662710097068e-23
13.663366336633663,-9.42440698677779e-22,6.200304624857215e-23
13.762376237623762,-9.36284829388938e-22,6.234755810086697e-23
13.861386138613861,-9.300946475686964e-22,6.269606992555695e-23
13.96039603960396,-9.238697660373426e-22,6.30483997511603e-23
14.05940594059406,-9.176098159348032e-22,6.34043596519722e-23
14.158415841584159,-9.113144472943777e-22,6.37637560806909e-23
14.257425742574258,-9.049833295821912e-22,6.412639016505681e-23
14.356435643564357,-8.986161522121883e-22,6.449205803270278e-23
14.455445544554456,-8.9221262502126e-22,6.486055115156292e-23
14.554455445544555,-8.857724787168293e-22,6.523165665957828e-23
14.653465346534654,-8.7929546528669e-22,6.560515772941983e-23
14.752475247524753,-8.727813583743698e-22,6.598083388069674e-23
14.85148514851485,-8.66229953627146e-22,6.63584613485636e-23
14.950495049504951,-8.596410689984167e-22,6.673781344941914e-23
15.049504950495049,-8.530145450233008e-22,6.711866092228557e-23
15.14851485148515,-8.463502450534096e-22,6.750077227700247e-23
15.247524752475247,-8.396480554634985e-22,6.788391416769088e-23
15.346534653465348,-8.329078858122826e-22,6.826785174873892e-23
15.445544554455445,-8.2612966897859965e-22,6.865234900839015e-23
15.544554455445546,-8.193133612561658e-22,6.903716914903122e-23
15.643564356435643,-8.124589424144351e-22,6.942207491495732e-23
15.742574257425744,-8.055664157284516e-22,6.980682895709439e-23
15.841584158415841,-7.986358079674857e-22,7.019119416368433e-23
15.94059405940594,-7.916671693594054e-22,7.057493399387485e-23
16.03960396039604,-7.8466057351325305e-22,7.09578128230064e-23
16.13861386138614,-7.776161173152457e-22,7.133959626258279e-23
16.237623762376238,-7.705339207879892e-22,7.172005147831377e-23
16.336633663366335,-7.634141269235005e-22,7.209894748675557e-23
16.435643564356436,-7.562569014836811e-22,7.24760554840529e-23
16.534653465346537,-7.490624327682423e-22,7.285114914549327e-23
16.633663366336634,-7.418309313558605e-22,7.32240048774088e-23
16.73267326732673,-7.345626298222211e-22,7.359440211770336e-23
16.831683168316832,-7.2725778242166185e-22,7.396212360722282e-23
16.93069306930693,-7.199166647514838e-22,7.432695562802421e-23
17.02970297029703,-7.125395733864094e-22,7.468868828154395e-23
17.128712871287128,-7.051268254878116e-22,7.504711569770567e-23
17.22772277227723,-6.976787583967646e-22,7.540203624889178e-23
17.326732673267326,-6.901957292009024e-22,7.575325281156832e-23
17.425742574257427,-6.82678114275662e-22,7.610057293746544e-23
17.524752475247524,-6.751263088172459e-22,7.644380902572327e-23
17.623762376237625,-6.675407263497762e-22,7.67827785358948e-23
17.722772277227723,-6.599217982160787e-22,7.711730415425226e-23
17.821782178217823,-6.522699730519044e-22,7.744721392412327e-23
17.92079207920792,-6.445857162509058e-22,7.777234139177399e-23
18.019801980198018,-6.368695094099692e-22,7.80925257698029e-23
18.11881188118812,-6.291218497618358e-22,7.840761202274003e-23
18.21782178217822,-6.213432496034857e-22,7.8717450979861e-23
18.316831683168317,-6.135342357064179e-22,7.90218994402194e-23
18.415841584158414,-6.056953487242346e-22,7.932082024852052e-23
18.514851485148515,-5.978271425878989e-22,7.961408235736763e-23
18.613861386138616,-5.899301839009932e-22,7.990156090506505e-23
18.712871287128714,-5.820050513195691e-22,8.018313727202607e-23
18.81188118811881,-5.740523349362358e-22,8.045869906910228e-23
18.91089108910891,-5.660726356623211e-22,8.072814020762157e-23
19.009900990099013,-5.580665645980927e-22,8.099136091493965e-23
19.10891089108911,-5.500347424118381e-22,8.124826770720282e-23
19.207920792079207,-5.419777987154785e-22,8.149877340491826e-23
19.306930693069308,-5.338963714405671e-22,8.174279713295482e-23
19.40594059405941,-5.257911062139029e-22,8.198026426218543e-23
19.504950495049506,-5.1766265574508485e-22,8.221110638808107e-23
19.603960396039604,-5.095116792063623e-22,8.243526130543485e-23
19.7029702970297,-5.01338841625197e-22,8.265267291887845e-23
19.801980198019802,-4.931448132818319e-22,8.286329122343363e-23
19.900990099009903,-4.849302691057049e-22,8.306707221308737e-23
20.0,-4.766958880911215e-22,8.326397780492148e-23
20.099009900990097,-4.68442352708691e-22,8.345397576325696e-23
20.198019801980198,-4.601703483360212e-22,8.363703961407084e-23
20.2970297029703,-4.5188056268610245e-22,8.381314854384084e-23
20.396039603960396,-4.435736852580328e-22,8.398228727310394e-23
20.495049504950494,-4.352504067904386e-22,8.414444600782854e-23
20.594059405940595,-4.269114187218292e-22,8.429962028575232e-23
20.693069306930695,-4.1855741267444765e-22,8.444781084994232e-23
20.792079207920793,-4.1018907993966233e-22,8.458902354957904e-23
20.89108910891089,-4.01807110981462e-22,8.47232692193632e-23
20.99009900990099,-3.93412194945729e-22,8.485056353752311e-23
21.089108910891092,-3.8500501919185312e-22,8.497092687019353e-23
21.18811881188119,-3.7658626883281935e-22,8.508438417998518e-23
21.287128712871286,-3.6815662628492565e-22,8.519096487815603e-23
21.386138613861387,-3.597167708371449e-22,8.529070265927703e-23
21.48514851485149,-3.5126737823358337e-22,8.538363537673387e-23
21.584158415841586,-3.428091202674946e-22,8.546980489294212e-23
21.683168316831683,-3.343426643933971e-22,8.554925692568191e-23
21.78217821782178,-3.2586867335151823e-22,8.562204094306177e-23
21.88118811881188,-3.173878048007116e-22,8.568820997677694e-23
21.980198019801982,-3.089007109798789e-22,8.574782047233227e-23
22.07920792079208,-3.004080383705468e-22,8.58009321645413e-23
22.178217821782177,-2.9191042738294033e-22,8.584760791413636e-23
22.277227722772277,-2.834085120509158e-22,8.588791357744761e-23
22.37623762376238,-2.749029197438415e-22,8.592191786050746e-23
22.475247524752476,-2.663942708904193e-22,8.594969214981266e-23
22.574257425742573,-2.578831787240769e-22,8.597131038394866e-23
22.673267326732674,-2.493702490322116e-22,8.598684891743219e-23
22.772277227722775,-2.4085607992854547e-22,8.599638637286982e-23
22.871287128712872,-2.323412616316433e-22,8.600000351451651e-23
22.97029702970297,-2.238263762623049e-22,8.599778309071912e-23
23.06930693069307,-2.153119976532831e-22,8.598980971137704e-23
23.16831683168317,-2.0679869117094274e-22,8.597616970010246e-23
23.26732673267327,-1.9828701355425288e-22,8.595695099500727e-23
23.366336633663366,-1.8977751275609014e-22,8.593224298336902e-23
23.465346534653467,-1.8127072781497182e-22,8.590213641410577e-23
23.564356435643568,-1.7276718871369264e-22,8.586672326354806e-23
23.663366336633665,-1.6426741627763557e-22,8.582609657009433e-23
23.762376237623762,-1.557719220661495e-22,8.578035038364328e-23
23.86138613861386,-1.4728120828087483e-22,8.572957961581338e-23
23.96039603960396,-1.3879576768678048e-22,8.567387993490393e-23
24.05940594059406,-1.3031608354128957e-22,8.561334766863423e-23
24.15841584158416,-1.2184262953457566e-22,8.554807968353537e-23
24.257425742574256,-1.1337586974257e-22,8.547817329353152e-23
24.356435643564357,-1.0491625858536147e-22,8.540372613934527e-23
24.455445544554458,-9.646424080408545e-23,8.532483613013521e-23
24.554455445544555,-8.802025143087925e-23,8.524160135206542e-23
24.653465346534652,-7.958471578387475e-23,8.515411991269794e-23
24.752475247524753,-7.115804946796875e-23,8.506248992543594e-23
24.851485148514854,-6.274065837289701e-23,8.496680943171083e-23
24.95049504950495,-5.433293868941213e-23,8.486717626675773e-23
25.04950495049505,-4.593527693393538e-23,8.476368799348523e-23
25.14851485148515,-3.7548049977830883e-23,8.46564418985913e-23
25.24752475247525,-2.917162507282788e-23,8.454553483305141e-23
25.346534653465348,-2.0806359911880097e-23,8.443106318487992e-23
25.445544554455445,-1.2452602659980656e-23,8.431312285968427e-23
25.544554455445546,-4.1106920188732954e-24,8.419180912116556e-23
25.643564356435647,4.219042710547491e-24,8.406721660667387e-23
25.742574257425744,1.2536281566606693e-23,8.393943927273704e-23
25.84158415841584,2.084071385366345e-23,8.380857030558947e-23
25.94059405940594,2.913203806276274e-23,8.367470209782987e-23
26.03960396039604,3.74099617938278e-23,8.353792620951749e-23
26.13861386138614,4.5674201668608096e-23,8.339833328258366e-23
26.237623762376238,5.392448323592358e-23,8.325601306027482e-23
26.33663366336634,6.216054088846451e-23,8.311105429379701e-23
26.435643564356436,7.038211774954677e-23,8.296354473452726e-23
26.534653465346537,7.858896558837092e-23,8.281357111456371e-23
26.633663366336634,8.678084470292573e-23,8.266121911171174e-23
26.732673267326735,9.495752382831384e-23,8.250657326389577e-23
26.831683168316832,1.0311878000270708e-22,8.23497169847226e-23
26.93069306930693,1.1126439847875368e-22,8.219073260237736e-23
27.02970297029703,1.1939417259723725e-22,8.202970123514615e-23
27.128712871287128,1.2750790367383213e-22,8.186670280307285e-23
27.22772277227723,1.3560540087507348e-22,8.170181605519879e-23
27.326732673267326,1.436864811105052e-22,8.153511851898678e-23
27.425742574257427,1.5175096889863522e-22,8.136668643418345e-23
27.524752475247524,1.597986962459871e-22,8.119659486175188e-23
27.623762376237625,1.6782950253462572e-22,8.10249175827197e-23
27.722772277227723,1.7584323438117917e-22,8.08517270709482e-23
27.821782178217823,1.838397455189719e-22,8.067709458260922e-23
27.92079207920792,1.918188966747652e-22,8.050109007448938e-23
28.01980198019802,1.9978055543471237e-22,8.032378223511034e-23
28.11881188118812,2.0772459612726233e-22,8.014523842637638e-23
28.21782178217822,2.156508996775592e-22,7.996552474192758e-23
28.316831683168317,2.2355935350190147e-22,7.97847060227019e-23
28.415841584158418,2.3144985136522297e-22,7.960284577912814e-23
28.514851485148515,2.393222932601447e-22,7.942000625337189e-23
28.613861386138616,2.471765852767818e-22,7.923624839988339e-23
28.712871287128714,2.550126394779434e-22,7.905163190873953e-23
28.811881188118814,2.628303737735619e-22,7.88662151745214e-23
28.91089108910891,2.7062971178972983e-22,7.868005537023148e-23
29.009900990099013,2.784105827577662e-22,7.849320836948569e-23
29.10891089108911,2.861729213678458e-22,7.830572879708935e-23
29.207920792079207,2.9391666766808063e-22,7.811767006793496e-23
29.306930693069308,3.0164176692585277e-22,7.792908431698956e-23
29.405940594059405,3.0934816951302904e-22,7.774002249264722e-23
29.504950495049506,3.1703583078578295e-22,7.755053434506892e-23
29.603960396039604,3.247047109674982e-22,7.736066839116482e-23
29.702970297029704,3.323547750216572e-22,7.717047195349841e-23
29.801980198019802,3.3998599254244837e-22,7.697999121086235e-23
29.900990099009903,3.4759833763766956e-22,7.678927116326525e-23
30.0,3.5519178881240184e-22,7.6598355670833e-23
30.0990099009901,3.627663288596167e-22,7.640728743436088e-23
30.198019801980198,3.7032194473999807e-22,7.621610804977574e-23
30.2970297029703,3.778586274833346e-22,7.602485803925863e-23
30.396039603960396,3.8537637207450477e-22,7.583357678122181e-23
30.495049504950497,3.928751773410024e-22,7.564230256866103e-23
30.594059405940595,4.0035504585047727e-22,7.545107269085335e-23
30.693069306930695,4.0781598381443867e-22,7.525992336722211e-23
30.792079207920793,4.152580009726995e-22,7.50688897551189e-23
30.891089108910894,4.226811104986206e-22,7.48780060470789e-23
30.99009900990099,4.3008532890281415e-22,7.46873054163603e-23
31.089108910891092,4.374706759276029e-22,7.449682005584547e-23
31.18811881188119,4.448371744584271e-22,7.430658116247964e-23
31.287128712871286,4.521848504152224e-22,7.411661902285634e-23
31.386138613861387,4.595137326807749e-22,7.39269630093369e-23
31.485148514851485,4.668238529913287e-22,7.373764153335384e-23
31.584158415841586,4.741152458556964e-22,7.354868211544437e-23
31.683168316831683,4.813879484597335e-22,7.336011140081163e-23
31.782178217821784,4.886420005885304e-22,7.317195519822555e-23
31.88118811881188,4.958774445385902e-22,7.298423840610956e-23
31.980198019801982,5.030943250253838e-22,7.279698510979562e-23
32.07920792079208,5.102926891147874e-22,7.261021862821215e-23
32.178217821782184,5.174725861398816e-22,7.242396142051596e-23
32.27722772277228,5.246340676138997e-22,7.223823516000734e-23
32.37623762376238,5.3177718716166495e-22,7.205306079247895e-23
32.475247524752476,5.389020004440933e-22,7.186845848954513e-23
32.57425742574257,5.460085650803865e-22,7.168444768753779e-23
32.67326732673267,5.530969405802392e-22,7.150104709917443e-23
32.772277227722775,5.601671882683421e-22,7.131827470189879e-23
32.87128712871287,5.672193712142788e-22,7.113614782345455e-23
32.97029702970298,5.74253554173977e-22,7.095468315356542e-23
33.069306930693074,5.812698035219158e-22,7.077389664278583e-23
33.16831683168317,5.882681871725482e-22,7.059380361142093e-23
33.26732673267327,5.952487745340782e-22,7.041441879622736e-23
33.366336633663366,6.022116364391276e-22,7.023575626870343e-23
33.46534653465346,6.09156845082336e-22,7.005782952457227e-23
33.56435643564356,6.160844739687457e-22,6.988065148377917e-23
33.663366336633665,6.229945978514014e-22,6.970423446326643e-23
33.76237623762376,6.2988729267434325e-22,6.952859023531769e-23
33.86138613861387,6.367626355217616e-22,6.935373004312564e-23
33.960396039603964,6.436207045640713e-22,6.917966458912512e-23
34.05940594059406,6.5046157900475635e-22,6.90064040388694e-23
34.15841584158416,6.572853390272135e-22,6.883395804049977e-23
34.257425742574256,6.640920657454492e-22,6.866233581032338e-23
34.35643564356435,6.708818411678714e-22,6.849154605500496e-23
34.45544554455446,6.77654748132579e-22,6.832159697157544e-23
34.554455445544555,6.844108702711539e-22,6.815249636802302e-23
34.65346534653466,6.911502919678314e-22,6.798425158549198e-23
34.75247524752476,6.978730983078853e-22,6.781686949828382e-23
34.851485148514854,7.045793750367983e-22,6.765035660721558e-23
34.95049504950495,7.112692085271357e-22,6.748471898127994e-23
35.04950495049505,7.179426857261605e-22,6.731996230821071e-23
35.148514851485146,7.245998941327218e-22,6.715609188670083e-23
35.24752475247525,7.312409217433292e-22,6.699311261863172e-23
35.34653465346535,7.378658570275007e-22,6.68310290557477e-23
35.445544554455445,7.444747888830809e-22,6.666984539964777e-23
35.54455445544555,7.510678066115896e-22,6.650956552515777e-23
35.64356435643565,7.576449998781619e-22,6.63501929413988e-23
35.742574257425744,7.642064586791931e-22,6.619173081513458e-23
35.84158415841584,7.707522733069012e-22,6.603418203302717e-23
35.94059405940594,7.772825343292974e-22,6.587754919385118e-23
36.039603960396036,7.837973325532081e-22,6.572183456958329e-23
36.13861386138614,7.902967589965418e-22,6.556704013654286e-23
36.23762376237624,7.967809048574741e-22,6.541316759870993e-23
36.33663366336634,8.032498614913361e-22,6.526021841108847e-23
36.43564356435644,8.097037203844226e-22,6.51081937485755e-23
36.53465346534654,8.161425731247172e-22,6.495709454485658e-23
36.633663366336634,8.225665113834038e-22,6.480692146907801e-23
36.73267326732673,8.2897562688097e-22,6.465767494918219e-23
36.83168316831683,8.353700113733407e-22,6.450935521080985e-23
36.93069306930693,8.41749756625685e-22,6.436196222284069e-23
37.02970297029703,8.481149543877648e-22,6.421549578297381e-23
37.128712871287135,8.5446569638469e-22,6.406995545548789e-23
37.22772277227723,8.608020742799408e-22,6.392534058679902e-23
37.32673267326733,8.671241796692045e-22,6.378165035214427e-23
37.42574257425743,8.734321040526424e-22,6.363888370112294e-23
37.524752475247524,8.797259388179416e-22,6.349703948218392e-23
37.62376237623762,8.860057752372331e-22,6.33561163181323e-23
37.72277227722772,8.922717044254923e-22,6.321611262947307e-23
37.82178217821782,8.985238173420794e-22,6.307702671222241e-23
37.92079207920792,9.047622047645466e-22,6.293885669122045e-23
38.019801980198025,9.10986957280935e-22,6.28016005979298e-23
38.11881188118812,9.171981652789886e-22,6.266525625374603e-23
38.21782178217822,9.2339591891534e-22,6.252982131665332e-23
38.31683168316832,9.295803081139693e-22,6.239529339018318e-23
38.415841584158414,9.357514225569601e-22,6.22616698989031e-23
38.51485148514851,9.419093516583063e-22,6.212894813510755e-23
38.613861386138616,9.480541845639124e-22,6.199712528216912e-23
38.71287128712871,9.54186010130023e-22,6.186619845342201e-23
38.81188118811882,9.603049169309268e-22,6.173616456768826e-23
38.910891089108915,9.664109932127337e-22,6.160702049710416e-23
39.00990099009901,9.725043269303532e-22,6.147876303599545e-23
39.10891089108911,9.785850056951088e-22,6.135138875304859e-23
39.20792079207921,9.84653116782442e-22,6.122489427919746e-23
39.306930693069305,9.90708747136534e-22,6.109927609753826e-23
39.40594059405941,9.967519833364099e-22,6.097453054333551e-23
39.504950495049506,1.0027829116005609e-21,6.085065398297781e-23
39.603960396039604,1.0088016177884845e-21,6.072764261944988e-23
39.70297029702971,1.0148081873667888e-21,6.060549257015896e-23
39.801980198019805,1.02080270542614e-21,6.048419999141305e-23
39.9009900990099,1.0267852566720188e-21,6.036376089945843e-23
40.0,1.0327559254062306e-21,6.024417120162023e-23
40.0990099009901,1.0387147955238245e-21,6.012542681300028e-23
40.198019801980195,1.0446619505177156e-21,6.000752357867255e-23
40.2970297029703,1.0505974734601955e-21,5.989045728925159e-23
40.396039603960396,1.0565214470106368e-21,5.97742236653188e-23
40.4950495049505,1.0624339533939223e-21,5.965881837299315e-23
40.5940594059406,1.0683350744112298e-21,5.954423710173798e-23
40.693069306930695,1.0742248914338701e-21,5.943047540873458e-23
40.79207920792079,1.0801034853832563e-21,5.931752882783268e-23
40.89108910891089,1.085970936746312e-21,5.920539292400003e-23
40.99009900990099,1.0918273255662264e-21,5.909406316883367e-23
41.08910891089109,1.09767273143321e-21,5.898353497169151e-23
41.18811881188119,1.1035072334814131e-21,5.887380378082845e-23
41.287128712871294,1.109330910399711e-21,5.876486501337908e-23
